翼型实验数据

实验日期：2015年05月25日10:30:30
大气压(kPa)：100.1300  温度(℃)：25.80  密度： 1.16703kg/m^3
来流风速: 40.86m/s  攻角：-9.00  雷诺数：2.00E+006 马赫数：0.12  弦长：0.800000
来流总压：101.0286kPa 来流静压：100.0542kPa 来流动压：974.4Pa
升力系数：-0.5790 0.0028 0.0028   阻力系数： 0.0174

力矩系数：-0.1258 0.0000 0.0000

翼型上表面1
序号  压力(kPa)   压力系数  测压通道  坐标
000     -0.55340     -0.48505    001   0.00000
001     0.01570     0.09803    002   0.00050
002     0.33880     0.42907    003   0.00125
003     0.59430     0.69085    004   0.00250
004     0.78830     0.88961    005   0.00500
005     0.85530     0.95826    006   0.00750
006     0.90780     1.01205    007   0.01000
007     0.86440     0.96758    008   0.01500
008     0.83900     0.94156    009   0.02500
009     0.72690     0.82670    010   0.05000
010     0.40780     0.49976    012   0.10000
011     0.25630     0.34454    013   0.12500
012     0.12850     0.21360    014   0.15000
013     0.01060     0.09281    015   0.17500
014     -0.07720     0.00285    016   0.20000
015     -0.17850     -0.10094    017   0.22500
016     -0.32860     -0.25473    019   0.27500
017     -0.43670     -0.36548    021   0.32500
018     -0.48130     -0.41118    022   0.35000
019     -0.49840     -0.42870    023   0.37500
020     -0.53830     -0.46958    024   0.40000
021     -0.54150     -0.47286    025   0.42500
022     -0.53390     -0.46507    026   0.45000
023     -0.53230     -0.46343    027   0.47500
024     -0.51590     -0.44663    028   0.50000
025     -0.48410     -0.41405    029   0.52500
026     -0.45250     -0.38167    030   0.55000
027     -0.42930     -0.35790    031   0.57500
028     -0.40920     -0.33731    032   0.60000
029     -0.38140     -0.30883    033   0.62500
030     -0.33760     -0.26395    034   0.65000
031     -0.29680     -0.22215    035   0.67500
032     -0.27270     -0.19746    036   0.70000
033     -0.23060     -0.15432    038   0.75000
034     -0.18320     -0.10576    040   0.80000
035     -0.16130     -0.08332    041   0.82500
036     -0.14640     -0.06805    042   0.85000
037     -0.12130     -0.04234    043   0.87500
038     -0.11240     -0.03322    044   0.90000
039     -0.08820     -0.00842    045   0.92500
040     -0.06660     0.01371    046   0.95000
041     0.01030     0.09250    048   0.99000

翼型下表面1
序号  压力(kPa)   压力系数  测压通道  坐标
000     -0.93020     -0.87111    096    0.00000
001     -1.62330     -1.58124    095    0.00050
002     -1.90540     -1.87027    094    0.00125
003     -2.15930     -2.13041    093    0.00250
004     -2.34200     -2.31760    092    0.00500
005     -2.49480     -2.47415    091    0.00750
006     -2.54090     -2.52138    090    0.01000
007     -2.35200     -2.32784    089    0.01500
008     -2.21620     -2.18871    088    0.02500
009     -2.02720     -1.99506    087    0.05000
010     -1.85850     -1.82222    086    0.07500
011     -1.58020     -1.53708    084    0.12500
012     -1.51360     -1.46884    083    0.15000
013     -1.47080     -1.42499    082    0.17500
014     -1.32950     -1.28022    081    0.20000
015     -1.39200     -1.34426    080    0.22500
016     -1.34750     -1.29866    079    0.25000
017     -1.27850     -1.22797    078    0.27500
018     -1.18780     -1.13504    077    0.30000
019     -1.11640     -1.06188    076    0.32500
020     -1.10580     -1.05102    075    0.35000
021     -1.00040     -0.94303    074    0.37500
022     -0.90920     -0.84959    073    0.40000
023     -0.83340     -0.77193    072    0.42500
024     -0.74840     -0.68484    071    0.45000
025     -0.65240     -0.58648    070    0.47500
026     -0.55130     -0.48290    069    0.50000
027     -0.44480     -0.37378    068    0.52500
028     -0.35930     -0.28618    067    0.55000
029     -0.28100     -0.20596    066    0.57500
030     -0.21480     -0.13813    065    0.60000
031     -0.16940     -0.09162    064    0.62500
032     -0.14480     -0.06641    063    0.65000
033     -0.11910     -0.04008    062    0.67500
034     -0.10230     -0.02287    061    0.70000
035     -0.09150     -0.01180    060    0.72500
036     -0.07900     0.00100    059    0.75000
037     -0.04620     0.03461    056    0.82500
038     -0.02820     0.05305    055    0.85000
039     -0.01390     0.06770    054    0.87500
040     0.00840     0.09055    053    0.90000
041     0.03140     0.11412    052    0.92500
042     0.05130     0.13451    051    0.95000
043     0.07550     0.15930    050    0.97500
044     0.07970     0.16360    049    0.99000

尾耙总压
序号  压力(kPa)   压力系数  测压通道  坐标
000     0.91110     1.01543     129    0.06250
001     0.91130     1.01563     130    0.08750
002     0.91110     1.01543     131    0.11250
003     0.91270     1.01707     132    0.13750
004     0.91290     1.01727     133    0.16250
005     0.90810     1.01236     134    0.18750
006     0.91440     1.01881     135    0.21250
007     0.91380     1.01820     136    0.23750
008     0.91260     1.01697     137    0.26250
009     0.91300     1.01738     138    0.28750
010     0.90830     1.01256     139    0.31250
011     0.91330     1.01768     140    0.33750
012     0.91310     1.01748     141    0.36250
013     0.91590     1.02035     142    0.38750
014     0.91530     1.01973     143    0.41250
015     0.91220     1.01656     144    0.43750
016     0.91330     1.01768     145    0.45250
017     0.91250     1.01686     146    0.46750
018     0.91090     1.01523     147    0.48250
019     0.91560     1.02004     148    0.49750
020     0.91140     1.01574     149    0.51250
021     0.91120     1.01553     150    0.52750
022     0.89790     1.00191     151    0.54250
023     0.91570     1.02014     152    0.55750
024     0.90990     1.01420     153    0.57250
025     0.91450     1.01891     154    0.58750
026     0.91330     1.01768     155    0.60250
027     0.91300     1.01738     156    0.61750
028     0.91390     1.01830     157    0.63250
029     0.91020     1.01451     158    0.64750
030     0.91200     1.01635     159    0.66250
031     0.90880     1.01307     160    0.67750
032     0.91460     1.01902     161    0.69250
033     0.90370     1.00785     162    0.70750
034     0.90990     1.01420     163    0.72250
035     0.90960     1.01389     164    0.73750
036     0.89660     1.00057     165    0.74750
037     0.90850     1.01277     166    0.75750
038     0.90870     1.01297     167    0.76750
039     0.90180     1.00590     168    0.77750
040     0.90760     1.01184     169    0.78750
041     0.90740     1.01164     170    0.79750
042     0.91370     1.01809     171    0.80750
043     0.91070     1.01502     172    0.81750
044     0.90740     1.01164     173    0.82750
045     0.90870     1.01297     174    0.83750
046     0.91390     1.01830     175    0.84750
047     0.91230     1.01666     176    0.85750
048     0.90690     1.01113     177    0.86750
049     0.91070     1.01502     178    0.87750
050     0.91090     1.01523     179    0.88750
051     0.90620     1.01041     180    0.89750
052     0.91030     1.01461     181    0.90750
053     0.91040     1.01471     182    0.91750
054     0.90470     1.00887     183    0.92750
055     0.90900     1.01328     184    0.93750
056     0.90890     1.01318     185    0.94750
057     0.91970     1.02424     186    0.95750
058     0.91320     1.01758     187    0.96750
059     0.90600     1.01020     188    0.97750
060     0.90930     1.01359     189    0.98750
061     0.90340     1.00754     190    0.99750
062     0.91100     1.01533     191    1.00750
063     0.91000     1.01430     192    1.01750
064     0.90110     1.00518     193    1.02750
065     0.89640     1.00037     194    1.03750
066     0.89650     1.00047     195    1.04750
067     0.88430     0.98797     196    1.05750
068     0.87230     0.97568     197    1.06750
069     0.85560     0.95857     198    1.07750
070     0.84550     0.94822     199    1.08750
071     0.82290     0.92506     200    1.09750
072     0.80110     0.90273     201    1.10750
073     0.78280     0.88398     202    1.11750
074     0.76760     0.86840     203    1.12750
075     0.75170     0.85211     204    1.13750
076     0.74810     0.84843     205    1.15250
077     0.75620     0.85672     206    1.16750
078     0.77730     0.87834     207    1.18250
079     0.81440     0.91635     208    1.19750
080     0.85830     0.96133     209    1.21250
081     0.88510     0.98879     210    1.22750
082     0.90150     1.00559     211    1.24250
083     0.90830     1.01256     212    1.25750
084     0.90970     1.01400     213    1.27250
085     0.90600     1.01020     214    1.28750
086     0.90760     1.01184     215    1.30250
087     0.90800     1.01225     216    1.31750
088     0.90560     1.00979     217    1.33250
089     0.90780     1.01205     218    1.34750
090     0.90760     1.01184     219    1.36250
091     0.90350     1.00764     220    1.37750
092     0.90630     1.01051     221    1.39250
093     0.90720     1.01143     222    1.40750
094     0.90610     1.01031     223    1.42250
095     0.90810     1.01236     224    1.43750
096     0.90600     1.01020     225    1.46250
097     0.91340     1.01779     226    1.48750
098     0.91390     1.01830     227    1.51250
099     0.90750     1.01174     228    1.53750
100     0.90670     1.01092     229    1.56250
101     0.90780     1.01205     230    1.58750
102     0.91290     1.01727     231    1.61250
103     0.88720     0.99094     232    1.63750
104     0.91050     1.01482     233    1.66250
105     0.91300     1.01738     234    1.68750
106     0.90270     1.00682     235    1.71250
107     0.90660     1.01082     236    1.73750
108     0.90530     1.00949     237    1.76250
109     0.91000     1.01430     238    1.78750
110     0.91150     1.01584     239    1.81250

尾耙静压
序号  压力(kPa)   压力系数  测压通道  坐标
000     -0.10900     -0.02973      241    0.62500
001     -0.12390     -0.04500      242    0.93750
002     -0.11420     -0.03506      243    1.25000
003     -0.05100     0.02969      244    1.56250
