翼型实验数据

实验日期：2015年05月25日10:35:17
大气压(kPa)：100.1300  温度(℃)：25.90  密度： 1.16664kg/m^3
来流风速: 41.29m/s  攻角：1.00  雷诺数：2.02E+006 马赫数：0.12  弦长：0.800000
来流总压：101.0328kPa 来流静压：100.0383kPa 来流动压：994.5Pa
升力系数：0.6850 -0.0001 -0.0001   阻力系数： 0.0078

力矩系数：-0.0998 0.0000 0.0000

翼型上表面1
序号  压力(kPa)   压力系数  测压通道  坐标
000     0.75310     0.84944    001   0.00000
001     0.51400     0.60903    002   0.00050
002     0.35680     0.45096    003   0.00125
003     0.16200     0.25509    004   0.00250
004     -0.12750     -0.03601    005   0.00500
005     -0.25030     -0.15948    006   0.00750
006     -0.44980     -0.36008    007   0.01000
007     -0.55960     -0.47049    008   0.01500
008     -0.70310     -0.61478    009   0.02500
009     -0.80640     -0.71865    010   0.05000
010     -0.97100     -0.88416    012   0.10000
011     -1.03350     -0.94700    013   0.12500
012     -1.09180     -1.00562    014   0.15000
013     -1.15950     -1.07369    015   0.17500
014     -1.16920     -1.08345    016   0.20000
015     -1.24340     -1.15806    017   0.22500
016     -1.30090     -1.21587    019   0.27500
017     -1.31280     -1.22784    021   0.32500
018     -1.31660     -1.23166    022   0.35000
019     -1.28240     -1.19727    023   0.37500
020     -1.27360     -1.18842    024   0.40000
021     -1.23300     -1.14760    025   0.42500
022     -1.18550     -1.09984    026   0.45000
023     -1.14300     -1.05710    027   0.47500
024     -1.09860     -1.01246    028   0.50000
025     -0.95980     -0.87289    029   0.52500
026     -0.85690     -0.76943    030   0.55000
027     -0.82190     -0.73423    031   0.57500
028     -0.76520     -0.67722    032   0.60000
029     -0.69070     -0.60231    033   0.62500
030     -0.65770     -0.56913    034   0.65000
031     -0.59740     -0.50850    035   0.67500
032     -0.54000     -0.45078    036   0.70000
033     -0.44190     -0.35214    038   0.75000
034     -0.35050     -0.26024    040   0.80000
035     -0.30580     -0.21529    041   0.82500
036     -0.26980     -0.17909    042   0.85000
037     -0.22340     -0.13244    043   0.87500
038     -0.19270     -0.10157    044   0.90000
039     -0.14560     -0.05421    045   0.92500
040     -0.10020     -0.00856    046   0.95000
041     0.01980     0.11210    048   0.99000

翼型下表面1
序号  压力(kPa)   压力系数  测压通道  坐标
000     0.87220     0.96920    096    0.00000
001     0.92280     1.02008    095    0.00050
002     0.89450     0.99162    094    0.00125
003     0.82350     0.92023    093    0.00250
004     0.74660     0.84291    092    0.00500
005     0.61120     0.70676    091    0.00750
006     0.49300     0.58791    090    0.01000
007     0.27910     0.37283    089    0.01500
008     0.15000     0.24302    088    0.02500
009     0.01450     0.10678    087    0.05000
010     -0.12830     -0.03681    086    0.07500
011     -0.29660     -0.20604    084    0.12500
012     -0.35080     -0.26054    083    0.15000
013     -0.39750     -0.30750    082    0.17500
014     -0.42640     -0.33655    081    0.20000
015     -0.47790     -0.38834    080    0.22500
016     -0.50560     -0.41619    079    0.25000
017     -0.50670     -0.41730    078    0.27500
018     -0.48670     -0.39719    077    0.30000
019     -0.48220     -0.39266    076    0.32500
020     -0.51070     -0.42132    075    0.35000
021     -0.47710     -0.38753    074    0.37500
022     -0.44520     -0.35546    073    0.40000
023     -0.42080     -0.33092    072    0.42500
024     -0.39320     -0.30317    071    0.45000
025     -0.36590     -0.27572    070    0.47500
026     -0.29780     -0.20725    069    0.50000
027     -0.18980     -0.09865    068    0.52500
028     -0.16000     -0.06869    067    0.55000
029     -0.11490     -0.02334    066    0.57500
030     -0.06640     0.02543    065    0.60000
031     -0.01170     0.08043    064    0.62500
032     0.02540     0.11774    063    0.65000
033     0.06960     0.16218    062    0.67500
034     0.12300     0.21587    061    0.70000
035     0.16540     0.25851    060    0.72500
036     0.19690     0.29018    059    0.75000
037     0.26270     0.35634    056    0.82500
038     0.28400     0.37776    055    0.85000
039     0.27990     0.37364    054    0.87500
040     0.27740     0.37112    053    0.90000
041     0.26290     0.35654    052    0.92500
042     0.22070     0.31411    051    0.95000
043     0.18890     0.28214    050    0.97500
044     0.08790     0.18058    049    0.99000

尾耙总压
序号  压力(kPa)   压力系数  测压通道  坐标
000     0.91900     1.01626     129    0.06250
001     0.91910     1.01636     130    0.08750
002     0.91830     1.01556     131    0.11250
003     0.91890     1.01616     132    0.13750
004     0.92030     1.01757     133    0.16250
005     0.91450     1.01173     134    0.18750
006     0.92190     1.01918     135    0.21250
007     0.92030     1.01757     136    0.23750
008     0.91860     1.01586     137    0.26250
009     0.92170     1.01897     138    0.28750
010     0.91700     1.01425     139    0.31250
011     0.91940     1.01666     140    0.33750
012     0.91980     1.01706     141    0.36250
013     0.92230     1.01958     142    0.38750
014     0.92290     1.02018     143    0.41250
015     0.92010     1.01737     144    0.43750
016     0.92120     1.01847     145    0.45250
017     0.91990     1.01716     146    0.46750
018     0.91850     1.01576     147    0.48250
019     0.92200     1.01928     148    0.49750
020     0.91840     1.01566     149    0.51250
021     0.91800     1.01525     150    0.52750
022     0.90480     1.00198     151    0.54250
023     0.92260     1.01988     152    0.55750
024     0.91660     1.01385     153    0.57250
025     0.92180     1.01907     154    0.58750
026     0.92020     1.01747     155    0.60250
027     0.91970     1.01696     156    0.61750
028     0.92040     1.01767     157    0.63250
029     0.91660     1.01385     158    0.64750
030     0.91910     1.01636     159    0.66250
031     0.91700     1.01425     160    0.67750
032     0.92020     1.01747     161    0.69250
033     0.91000     1.00721     162    0.70750
034     0.91530     1.01254     163    0.72250
035     0.91690     1.01415     164    0.73750
036     0.90340     1.00057     165    0.74750
037     0.91540     1.01264     166    0.75750
038     0.91770     1.01495     167    0.76750
039     0.90890     1.00610     168    0.77750
040     0.91460     1.01183     169    0.78750
041     0.91580     1.01304     170    0.79750
042     0.92190     1.01918     171    0.80750
043     0.91900     1.01626     172    0.81750
044     0.91350     1.01073     173    0.82750
045     0.91590     1.01314     174    0.83750
046     0.92160     1.01887     175    0.84750
047     0.91900     1.01626     176    0.85750
048     0.91490     1.01214     177    0.86750
049     0.91850     1.01576     178    0.87750
050     0.91850     1.01576     179    0.88750
051     0.91790     1.01515     180    0.89750
052     0.91820     1.01545     181    0.90750
053     0.91850     1.01576     182    0.91750
054     0.91270     1.00992     183    0.92750
055     0.91120     1.00842     184    0.93750
056     0.89000     0.98710     185    0.94750
057     0.84460     0.94145     186    0.95750
058     0.78250     0.87901     187    0.96750
059     0.74080     0.83708     188    0.97750
060     0.75720     0.85357     189    0.98750
061     0.80980     0.90646     190    0.99750
062     0.86640     0.96337     191    1.00750
063     0.90480     1.00198     192    1.01750
064     0.90810     1.00530     193    1.02750
065     0.91030     1.00751     194    1.03750
066     0.91540     1.01264     195    1.04750
067     0.91210     1.00932     196    1.05750
068     0.91420     1.01143     197    1.06750
069     0.91400     1.01123     198    1.07750
070     0.91760     1.01485     199    1.08750
071     0.91500     1.01224     200    1.09750
072     0.91120     1.00842     201    1.10750
073     0.91120     1.00842     202    1.11750
074     0.91390     1.01113     203    1.12750
075     0.91230     1.00952     204    1.13750
076     0.91760     1.01485     205    1.15250
077     0.91430     1.01153     206    1.16750
078     0.91280     1.01002     207    1.18250
079     0.91250     1.00972     208    1.19750
080     0.91080     1.00801     209    1.21250
081     0.91250     1.00972     210    1.22750
082     0.91460     1.01183     211    1.24250
083     0.91610     1.01334     212    1.25750
084     0.91690     1.01415     213    1.27250
085     0.91340     1.01063     214    1.28750
086     0.91480     1.01204     215    1.30250
087     0.91590     1.01314     216    1.31750
088     0.91460     1.01183     217    1.33250
089     0.91520     1.01244     218    1.34750
090     0.91510     1.01234     219    1.36250
091     0.90950     1.00671     220    1.37750
092     0.91420     1.01143     221    1.39250
093     0.91480     1.01204     222    1.40750
094     0.91110     1.00832     223    1.42250
095     0.91530     1.01254     224    1.43750
096     0.91470     1.01194     225    1.46250
097     0.92110     1.01837     226    1.48750
098     0.92140     1.01867     227    1.51250
099     0.91570     1.01294     228    1.53750
100     0.91400     1.01123     229    1.56250
101     0.91550     1.01274     230    1.58750
102     0.92060     1.01787     231    1.61250
103     0.89540     0.99253     232    1.63750
104     0.91920     1.01646     233    1.66250
105     0.92190     1.01918     234    1.68750
106     0.91090     1.00811     235    1.71250
107     0.91440     1.01163     236    1.73750
108     0.91210     1.00932     237    1.76250
109     0.91630     1.01354     238    1.78750
110     0.91890     1.01616     239    1.81250

尾耙静压
序号  压力(kPa)   压力系数  测压通道  坐标
000     -0.08210     0.00964      241    0.62500
001     -0.11690     -0.02535      242    0.93750
002     -0.13300     -0.04154      243    1.25000
003     -0.07930     0.01246      244    1.56250
