翼型实验数据

实验日期：2015年05月25日10:35:50
大气压(kPa)：100.1200  温度(℃)：25.90  密度： 1.16653kg/m^3
来流风速: 40.92m/s  攻角：2.00  雷诺数：2.00E+006 马赫数：0.12  弦长：0.800000
来流总压：101.0047kPa 来流静压：100.0281kPa 来流动压：976.6Pa
升力系数：0.8197 -0.0003 -0.0003   阻力系数： 0.0078

力矩系数：-0.0936 0.0000 0.0000

翼型上表面1
序号  压力(kPa)   压力系数  测压通道  坐标
000     0.57020     0.67441    001   0.00000
001     0.26150     0.35797    002   0.00050
002     0.08180     0.17376    003   0.00125
003     -0.13430     -0.04776    004   0.00250
004     -0.44430     -0.36553    005   0.00500
005     -0.56860     -0.49295    006   0.00750
006     -0.75820     -0.68731    007   0.01000
007     -0.85530     -0.78684    008   0.01500
008     -0.96570     -0.90001    009   0.02500
009     -1.03740     -0.97351    010   0.05000
010     -1.14350     -1.08227    012   0.10000
011     -1.18310     -1.12287    013   0.12500
012     -1.22610     -1.16695    014   0.15000
013     -1.28270     -1.22496    015   0.17500
014     -1.28930     -1.23173    016   0.20000
015     -1.34550     -1.28934    017   0.22500
016     -1.38790     -1.33280    019   0.27500
017     -1.38490     -1.32973    021   0.32500
018     -1.38330     -1.32809    022   0.35000
019     -1.34390     -1.28770    023   0.37500
020     -1.32920     -1.27263    024   0.40000
021     -1.28550     -1.22784    025   0.42500
022     -1.23680     -1.17791    026   0.45000
023     -1.19530     -1.13537    027   0.47500
024     -1.12930     -1.06772    028   0.50000
025     -0.96880     -0.90319    029   0.52500
026     -0.89300     -0.82549    030   0.55000
027     -0.85120     -0.78264    031   0.57500
028     -0.79000     -0.71991    032   0.60000
029     -0.71150     -0.63944    033   0.62500
030     -0.67400     -0.60100    034   0.65000
031     -0.61260     -0.53806    035   0.67500
032     -0.55430     -0.47829    036   0.70000
033     -0.45120     -0.37261    038   0.75000
034     -0.35680     -0.27584    040   0.80000
035     -0.31220     -0.23012    041   0.82500
036     -0.27470     -0.19168    042   0.85000
037     -0.22640     -0.14217    043   0.87500
038     -0.19490     -0.10988    044   0.90000
039     -0.14590     -0.05965    045   0.92500
040     -0.10030     -0.01291    046   0.95000
041     0.01890     0.10928    048   0.99000

翼型下表面1
序号  压力(kPa)   压力系数  测压通道  坐标
000     0.74940     0.85811    096    0.00000
001     0.88510     0.99721    095    0.00050
002     0.90490     1.01751    094    0.00125
003     0.87830     0.99024    093    0.00250
004     0.83370     0.94452    092    0.00500
005     0.73370     0.84201    091    0.00750
006     0.63270     0.73848    090    0.01000
007     0.43420     0.53500    089    0.01500
008     0.30470     0.40225    088    0.02500
009     0.16180     0.25577    087    0.05000
010     0.00940     0.09955    086    0.07500
011     -0.17710     -0.09163    084    0.12500
012     -0.23740     -0.15344    083    0.15000
013     -0.29060     -0.20798    082    0.17500
014     -0.32480     -0.24304    081    0.20000
015     -0.38170     -0.30136    080    0.22500
016     -0.41130     -0.33171    079    0.25000
017     -0.41870     -0.33929    078    0.27500
018     -0.40580     -0.32607    077    0.30000
019     -0.40580     -0.32607    076    0.32500
020     -0.43860     -0.35969    075    0.35000
021     -0.40970     -0.33007    074    0.37500
022     -0.38180     -0.30147    073    0.40000
023     -0.36040     -0.27953    072    0.42500
024     -0.33490     -0.25339    071    0.45000
025     -0.30800     -0.22582    070    0.47500
026     -0.28090     -0.19804    069    0.50000
027     -0.15190     -0.06580    068    0.52500
028     -0.12100     -0.03413    067    0.55000
029     -0.08420     0.00360    066    0.57500
030     -0.03940     0.04952    065    0.60000
031     0.01080     0.10098    064    0.62500
032     0.04520     0.13624    063    0.65000
033     0.08550     0.17755    062    0.67500
034     0.13580     0.22912    061    0.70000
035     0.17640     0.27073    060    0.72500
036     0.20640     0.30149    059    0.75000
037     0.26890     0.36556    056    0.82500
038     0.28840     0.38554    055    0.85000
039     0.28310     0.38011    054    0.87500
040     0.27970     0.37663    053    0.90000
041     0.26560     0.36217    052    0.92500
042     0.22160     0.31707    051    0.95000
043     0.18730     0.28191    050    0.97500
044     0.08050     0.17243    049    0.99000

尾耙总压
序号  压力(kPa)   压力系数  测压通道  坐标
000     0.90100     1.01351     129    0.06250
001     0.90230     1.01484     130    0.08750
002     0.90180     1.01433     131    0.11250
003     0.90320     1.01577     132    0.13750
004     0.90490     1.01751     133    0.16250
005     0.89900     1.01146     134    0.18750
006     0.90500     1.01761     135    0.21250
007     0.90390     1.01648     136    0.23750
008     0.90280     1.01536     137    0.26250
009     0.90530     1.01792     138    0.28750
010     0.89930     1.01177     139    0.31250
011     0.90430     1.01689     140    0.33750
012     0.90440     1.01700     141    0.36250
013     0.90720     1.01987     142    0.38750
014     0.90670     1.01935     143    0.41250
015     0.90400     1.01659     144    0.43750
016     0.90530     1.01792     145    0.45250
017     0.90290     1.01546     146    0.46750
018     0.90160     1.01413     147    0.48250
019     0.90570     1.01833     148    0.49750
020     0.90290     1.01546     149    0.51250
021     0.90240     1.01495     150    0.52750
022     0.88900     1.00121     151    0.54250
023     0.90810     1.02079     152    0.55750
024     0.90180     1.01433     153    0.57250
025     0.90580     1.01843     154    0.58750
026     0.90520     1.01782     155    0.60250
027     0.90440     1.01700     156    0.61750
028     0.90570     1.01833     157    0.63250
029     0.90000     1.01249     158    0.64750
030     0.90390     1.01648     159    0.66250
031     0.90090     1.01341     160    0.67750
032     0.90380     1.01638     161    0.69250
033     0.89300     1.00531     162    0.70750
034     0.89980     1.01228     163    0.72250
035     0.89920     1.01167     164    0.73750
036     0.88830     1.00049     165    0.74750
037     0.89900     1.01146     166    0.75750
038     0.90050     1.01300     167    0.76750
039     0.89390     1.00623     168    0.77750
040     0.89950     1.01197     169    0.78750
041     0.89840     1.01085     170    0.79750
042     0.90490     1.01751     171    0.80750
043     0.90320     1.01577     172    0.81750
044     0.89660     1.00900     173    0.82750
045     0.89930     1.01177     174    0.83750
046     0.90400     1.01659     175    0.84750
047     0.90250     1.01505     176    0.85750
048     0.89720     1.00962     177    0.86750
049     0.90300     1.01556     178    0.87750
050     0.90170     1.01423     179    0.88750
051     0.89960     1.01208     180    0.89750
052     0.90170     1.01423     181    0.90750
053     0.89810     1.01054     182    0.91750
054     0.87020     0.98194     183    0.92750
055     0.82400     0.93458     184    0.93750
056     0.76520     0.87430     185    0.94750
057     0.73820     0.84663     186    0.95750
058     0.73810     0.84652     187    0.96750
059     0.77450     0.88384     188    0.97750
060     0.83850     0.94944     189    0.98750
061     0.87460     0.98645     190    0.99750
062     0.89720     1.00962     191    1.00750
063     0.90150     1.01402     192    1.01750
064     0.89300     1.00531     193    1.02750
065     0.89280     1.00510     194    1.03750
066     0.89990     1.01238     195    1.04750
067     0.89570     1.00808     196    1.05750
068     0.89820     1.01064     197    1.06750
069     0.89850     1.01095     198    1.07750
070     0.90340     1.01597     199    1.08750
071     0.89900     1.01146     200    1.09750
072     0.89550     1.00787     201    1.10750
073     0.89560     1.00798     202    1.11750
074     0.89730     1.00972     203    1.12750
075     0.89590     1.00828     204    1.13750
076     0.90050     1.01300     205    1.15250
077     0.89780     1.01023     206    1.16750
078     0.89840     1.01085     207    1.18250
079     0.89640     1.00880     208    1.19750
080     0.89560     1.00798     209    1.21250
081     0.89790     1.01033     210    1.22750
082     0.89760     1.01003     211    1.24250
083     0.89720     1.00962     212    1.25750
084     0.90050     1.01300     213    1.27250
085     0.89630     1.00869     214    1.28750
086     0.89830     1.01074     215    1.30250
087     0.90050     1.01300     216    1.31750
088     0.89780     1.01023     217    1.33250
089     0.89860     1.01105     218    1.34750
090     0.89920     1.01167     219    1.36250
091     0.89250     1.00480     220    1.37750
092     0.89850     1.01095     221    1.39250
093     0.89650     1.00890     222    1.40750
094     0.89770     1.01013     223    1.42250
095     0.89940     1.01187     224    1.43750
096     0.89660     1.00900     225    1.46250
097     0.90460     1.01720     226    1.48750
098     0.90380     1.01638     227    1.51250
099     0.90020     1.01269     228    1.53750
100     0.89790     1.01033     229    1.56250
101     0.89870     1.01115     230    1.58750
102     0.90430     1.01689     231    1.61250
103     0.87830     0.99024     232    1.63750
104     0.90280     1.01536     233    1.66250
105     0.90480     1.01741     234    1.68750
106     0.89450     1.00685     235    1.71250
107     0.89640     1.00880     236    1.73750
108     0.89410     1.00644     237    1.76250
109     0.90090     1.01341     238    1.78750
110     0.90320     1.01577     239    1.81250

尾耙静压
序号  压力(kPa)   压力系数  测压通道  坐标
000     -0.08080     0.00708      241    0.62500
001     -0.11840     -0.03146      242    0.93750
002     -0.13660     -0.05012      243    1.25000
003     -0.08300     0.00483      244    1.56250
